# ariel:/home/ypeter/gmtdata/tecto/tectemed.gmt
# 
# Tectonic features of the Mediterranean region.
# Compilation of different maps. As first base,
# the compilation from Ch. Straub (PhD 1996) was used
# and completed with features extracted from the map
# after A.Barka (1997) and from the "PLATES Project"
# of the Uni. of Texas.
# YP/18-FEB-99 
# 
# YP/05-MAY-99: Add some more detailed features in Armenia
#               based on a map after S. Balassanian
#
# YP/12-MAY-99: Remove dashed fault in the south Black Sea (Nr 36)
#               (on request from HGK)
#
# YP/11-OCT-99: Correction of some faults in the Marmara See region
#               (on request from HGK)
#
# MC/16-NOV-99: New fault added near Koece (Turkey)
#
# MC/25-NOV-99: New fault added in North Aegean region (Greece)
#
#ChH/06-MAR-01: New fault added in North West Aegean region (Greece)
#
# Format: GMT Segment file. 
#
# one Headerline starting with '>' and followed by 5 numbers
# 1. Number of nodes of the segment
# 2. Segment number
# 3. Range 0-1 
#     0 = known feature (plain line)
#     1 = supposed feature (dashed line)
# 4. Range 0-1
#     0 = internal fault (thin line)
#     1 = boundary (thick line)
# 5. Range -1-3
#    -1 = unclassified
#     0 = strike-slip 
#     1 = normal 
#     2 = subduction 
#     3 = thrust 
#
# The data are longitute latitude
# ----------------------------------------------------------------------------
>   3    1  0  0  3
  19.896    40.841
  19.882    41.305
  19.652    41.696
>   4    2  0  0  3
  20.720    39.547
  20.379    40.035
  20.159    40.464
  20.075    40.953
>   4    3  0  0  1
  23.359    39.284
  23.014    39.636
  22.774    40.009
  22.400    40.400
>   4    4  0  0  1
  22.677    39.056
  23.093    38.902
  23.342    38.767
  23.536    38.589
>   3    5  0  0  1
  23.320    38.496
  22.841    38.641
  22.452    38.898
>   3    6  0  0  1
  24.075    38.059
  23.715    38.213
  23.509    38.439
>   2    7  0  0  1
  23.535    37.965
  23.995    37.627
>   4    8  0  1  1
  21.663    38.344
  22.198    38.350
  22.674    38.285
  23.073    38.224
>   4    9  0  1  1
  22.938    37.995
  22.551    38.111
  22.103    38.189
  21.624    38.251
>   3   10  0  0  1
  23.678    37.504
  23.366    37.711
  23.114    37.892
>   2   11  0  0  0
  21.699    37.728
  21.138    37.752
>   2   12  0  0  0
  21.665    37.567
  21.276    37.558
>   3   13  0  0  1
  23.302    36.434
  22.947    37.108
  22.696    37.692
>   3   14  0  0  1
  22.268    37.600
  22.487    37.124
  22.775    36.566
>   3   15  0  0  1
  22.582    36.574
  22.265    37.048
  22.040    37.494
>   3   16  0  0  1
  21.808    37.487
  22.006    37.126
  22.180    36.808
>   2   17  0  0  1
  21.984    36.765
  21.653    37.258
>   3   18  0  0  1
  24.073    38.707
  23.727    38.823
  23.415    39.093
>   2   19  0  0  0
  20.500    38.822
  19.990    37.840
>  10   20  0  1  2
  27.448    35.295
  26.877    34.815
  26.325    34.465
  25.660    34.379
  24.751    34.544
  23.657    34.859
  22.627    35.406
  21.570    36.235
  20.620    37.207
  19.990    37.840
>   3   21  0  1  1
  30.813    38.224
  30.392    38.024
  29.710    37.400
>   4   22  0  1  3
  29.400    37.100
  28.722    36.503
  28.053    35.851
  27.448    35.295
>   4   23  0  0  1
  25.329    34.681
  25.752    34.756
  26.188    34.869
  26.681    35.200
>   8   24  0  1  2
  32.901    34.432
  31.771    34.796
  30.731    35.056
  29.921    35.283
  28.936    35.366
  28.540    35.352
  28.089    35.136
  27.521    34.734
>   5   25  0  1  0
  35.986    36.111
  35.386    35.576
  34.684    34.961
  33.956    34.282
  33.172    33.658
>  10   26  0  1  2
  35.549    36.275
  34.934    35.868
  34.324    35.579
  33.700    35.359
  33.097    35.381
  32.440    35.687
  31.866    36.039
  31.373    36.550
  31.006    37.001
  30.757    37.790
>   3   27  0  0  0
  30.500    36.330
  30.672    36.902
  30.640    37.200
>   6   28  0  0  0
  41.441    35.524
  40.237    35.953
  39.059    36.478
  38.950    36.930
  38.700    37.280
  38.440    37.490
>  10   29  0  0  3
  41.810    41.840
  41.940    41.900
  42.140    41.970
  42.330    42.010
  42.560    42.020
  42.770    42.010
  42.930    41.990
  43.040    41.970
  43.150    41.950
  43.260    41.930
>  13   30  0  0  3
  43.884    42.539
  42.986    42.622
  42.101    42.798
  41.024    43.081
  40.475    43.184
  39.917    43.447
  38.891    43.968
  38.008    44.438
  37.256    44.722
  36.676    44.910
  36.022    44.914
  35.134    44.724
  33.912    44.332
>  11   31  0  1  0
  41.430    39.140
  41.103    39.251
  40.195    39.577
  39.155    39.933
  38.260    40.236
  37.314    40.545
  36.724    40.660
  36.158    40.704
  35.587    40.669
  35.048    40.458
  34.321    39.991
>  16   32  0  1  0
  36.700    40.692
  35.865    40.976
  34.983    41.218
  34.204    41.301
  33.393    41.147
  32.510    40.921
  31.724    40.642
  31.165    40.482
  30.790    40.538
  30.342    40.683
  29.907    40.748
  29.648    40.705
  29.329    40.690
  28.977    40.638
  28.794    40.570
  28.433    40.728
>   3   33  0  0  0
  29.907    40.748
  29.384    40.730
  28.828    40.910
>   2   34  0  0  0
  29.384    40.730
  28.683    40.779
>   4   35  1  0  0
  28.828    40.910
  28.506    40.965
  28.189    40.962
  27.906    40.909
>   2   36  0  0  0
  28.828    40.910
  28.433    40.728
>   2   37  0  0  0
  28.433    40.728
  27.739    40.713
>   2   38  0  0  0
  27.906    40.909
  27.739    40.713
>   3   39  0  0  0
  27.906    40.909
  27.563    40.895
  27.350    40.761
>   2   40  0  0  0
  27.739    40.713
  27.350    40.736
>   2   41  0  1  0
  27.350    40.736
  26.873    40.629
>   5   42  0  1  0
  26.873    40.629
  26.200    40.505 
  24.800    40.200
  24.300    40.000
  23.580    39.300
>   3   45  0  0  0
  26.897    40.638
  26.297    40.391
  25.179    40.067
>   3   46  0  1  0
  25.182    40.069
  24.383    39.584
  23.826    39.064
>   3   47  0  1  0
  30.790    40.538
  30.279    40.450
  29.737    40.442
>   6   48  0  1  0
  29.737    40.442
  29.224    40.392
  28.675    40.361
  27.884    40.350
  27.199    39.975
  26.014    39.833
>   4   49  0  1  0
  25.815    39.869
  25.100    39.530
  24.500    39.040
  24.780    38.820
>   8   50  0  1  0
  29.737    40.442
  29.227    40.242
  28.754    40.070
  27.978    40.089
  27.768    39.983
  27.528    39.896
  27.090    39.594
  26.159    39.510
>   3   51  0  1  0
  25.953    39.505
  25.256    39.197
  24.656    38.655
>   2   52  0  0  1
  24.371    40.241
  24.149    40.486
>   2   53  0  0  1
  24.054    40.071
  23.912    40.212
>   2   54  0  0  1
  23.198    40.126
  23.447    39.891
>   2   55  0  0  0
  26.487    39.019
  25.842    39.155
>   2   56  0  0  1
  25.900    38.000
  25.420    38.620
>   2   58  0  0  1
  26.988    37.921
  26.092    37.670
>   4   59  0  0  1
  29.330    37.850
  28.892    38.222
  28.178    38.477
  27.259    38.472
>   2   60  0  0  1
  29.850    38.330
  30.392    38.024
>   4   61  0  0  1
  27.000    36.700
  27.500    36.900
  28.000    37.000
  28.660    37.086
>   4   62  0  0  1
  31.143    39.444
  31.000    39.524
  30.037    39.907
  29.219    40.239
>   4   63  0  0  0
  23.372    39.197
  22.893    39.160
  22.510    39.160
  22.187    39.206
>   3   64  0  0  0
  23.168    39.352
  22.785    39.279
  22.403    39.233
>   3   65  0  0  0
  22.761    39.316
  22.594    39.352
  22.319    39.426
>   3   66  0  0  0
  22.785    39.756
  22.522    39.783
  22.175    39.811
>   2   67  0  0  0
  21.984    39.435
  21.661    39.444
>   3   68  0  0  0
  22.049    40.186
  21.944    40.113
  21.780    40.086
>   2   69  0  0  0
  21.971    40.150
  21.742    40.168
>   3   70  0  0  0
  25.524    41.226
  24.488    40.970
  23.975    40.713
>  13   71  0  1  3
  14.285    42.428
  14.717    42.055
  15.030    41.556
  15.301    41.232
  15.596    41.109
  15.869    40.790
  16.059    40.557
  16.521    40.402
  16.881    40.218
  17.198    39.874
  17.439    39.585
  17.574    39.247
  17.573    39.241
>   4   72  0  0  1
  27.100    37.600
  27.500    37.800
  28.000    37.900
  28.950    37.950
>   2   73  0  0  0
  29.950    38.150
  29.500    37.850
>   2   74  0  0  0
  28.400    37.100
  27.660    37.500
>   6   75  -1 -1 -1
  13.286    40.852
  13.731    40.817
  13.980    40.769
  14.357    40.767
  14.770    40.812
  14.700    40.858
>   6   76  -1 -1 -1
  14.951    40.826
  15.310    40.792
  15.608    40.716
  15.731    40.601
  15.815    40.421
  15.808    40.426
>   8   77  -1 -1 -1
  14.045    39.869
  14.379    39.889
  14.786    39.903
  14.792    39.896
  15.273    39.882
  15.628    39.824
  16.079    39.795
  16.072    39.803
>   7   78  0  1  0
  15.418    39.749
  15.894    39.734
  16.386    39.649
  16.814    39.518
  17.276    39.332
  17.560    39.228
  17.573    39.241
>  26   79  0  1  3
  17.573    39.241
  17.935    39.016
  18.074    38.846
  18.207    38.603
  18.259    38.298
  18.211    38.002
  18.046    37.686
  17.781    37.516
  17.467    37.383
  17.119    37.305
  16.673    37.306
  16.350    37.335
  15.908    37.422
  15.558    37.518
  15.240    37.579
  14.925    37.505
  14.597    37.357
  14.314    37.186
  14.032    37.059
  13.848    37.016
  13.496    37.090
  13.227    37.241
  13.038    37.307
  12.802    37.252
  12.470    37.141
  12.470    37.143
>   5   80  -1 -1 -1
  17.255    38.445
  17.168    38.219
  16.991    38.077
  16.718    37.938
  16.715    37.943
>   4   81  -1 -1 -1
  17.586    38.697
  17.676    38.506
  17.696    38.254
  17.684    38.265
>   4   82  -1 -1 -1
  17.473    37.748
  17.209    37.621
  16.891    37.535
  16.876    37.542
>   9   83  -1 -1 -1
  15.356    37.979
  15.347    37.979
  15.329    37.979
  15.314    37.981
  15.081    38.030
  15.073    38.031
  15.064    38.031
  14.811    38.117
  14.808    38.121
>   5   84  -1 -1 -1
  15.233    37.764
  14.946    37.827
  14.569    37.840
  14.183    37.890
  14.170    37.896
>  11   85  -1 -1 -1
  14.678    37.579
  14.376    37.605
  14.370    37.612
  14.362    37.614
  14.162    37.627
  14.155    37.631
  13.902    37.542
  13.887    37.545
  13.877    37.544
  13.524    37.509
  13.518    37.510
>   8   86  -1 -1 -1
  14.469    37.439
  14.157    37.353
  14.145    37.353
  14.135    37.347
  14.123    37.342
  13.946    37.289
  13.759    37.326
  13.755    37.328
>   5   87  -1 -1 -1
  14.699    41.221
  14.622    41.363
  14.455    41.416
  14.284    41.484
  14.264    41.501
>   3   88  -1 -1 -1
  14.029    41.457
  14.433    43.057
  14.433    43.059
>   2   89  -1 -1 -1
  14.379    42.933
  14.253    43.115
>   5   90  -1 -1 -1
  13.894    42.074
  13.878    42.233
  13.746    42.306
  13.424    42.352
  13.379    42.368
>   7   91  -1 -1 -1
  13.309    41.962
  13.407    42.447
  13.443    42.807
  13.398    42.988
  13.405    42.983
  13.149    43.236
  13.153    43.228
>   3   92  -1 -1 -1
  11.108    43.368
  11.521    42.926
  11.480    42.950
>   3   93  -1 -1 -1
  11.700    43.314
  12.253    43.059
  12.239    43.069
>   3   94  -1 -1 -1
  12.551    42.997
  12.788    42.720
  12.786    42.722
>   3   95  -1 -1 -1
  12.770    42.571
  13.112    42.188
  13.108    42.176
>   4   96  0  0  3
   9.773    41.468
   9.775    41.468
   9.936    42.329
   9.837    43.001
>   4   97  0  0  3
   9.722    39.133
   9.707    39.092
   9.989    40.660
   9.895    40.961
>   6   98  -1 -1 -1
   9.414    42.750
   9.370    42.527
   9.430    42.230
   9.514    42.008
   9.514    42.018
   9.524    41.936
>   4   99  -1 -1 -1
   8.975    40.999
   9.257    40.062
   9.401    39.326
   9.401    39.331
>   3  100  -1 -1 -1
   8.637    39.946
   9.056    39.183
   9.071    39.176
>   7  101  0  0  1
  15.586    35.754
  15.588    35.750
  15.445    35.987
  15.374    36.263
  15.350    36.707
  15.385    37.071
  15.329    37.384
>   6  102  -1 -1 -1
  14.551    37.209
  14.515    36.902
  14.419    36.693
  14.310    36.515
  14.144    36.425
  14.142    36.425
>   9  103  0  0  3
  11.648    37.395
  11.389    37.288
  11.092    37.241
  10.707    37.099
  10.367    36.752
   9.940    36.400
   9.482    36.049
   8.858    35.752
   8.190    35.525
>  15  104  0  0  3
  10.811    37.294
  10.570    37.282
  10.441    37.215
  10.266    37.147
  10.054    37.120
   9.779    37.091
   9.742    36.965
   9.622    36.748
   9.400    36.698
   9.080    36.595
   8.735    36.401
   8.452    36.190
   8.078    36.043
   7.728    36.020
   7.418    36.027
>   9  105  -1 -1 -1
   9.096    36.869
   9.091    36.872
   8.935    36.711
   8.790    36.672
   8.500    36.668
   8.204    36.552
   8.027    36.508
   7.673    36.540
   7.679    36.532
>   3  106  0  0  1
  11.830    37.322
  11.844    37.314
  11.301    37.507
>   4  107  0  0  1
  12.796    36.707
  12.798    36.707
  12.429    36.785
  11.976    37.178
>   4  108  0  0  1
  13.661    35.951
  13.663    35.950
  13.226    36.303
  12.984    36.551
>   5  109  0  0  1
  11.228    37.711
  11.949    37.466
  12.334    37.165
  12.487    36.936
  12.496    36.927
>   6  110  0  0  1
  12.482    36.904
  13.177    36.755
  13.173    36.760
  13.341    36.445
  13.863    35.962
  13.871    35.948
>   4  111  0  0  0
  13.532    35.941
  14.165    35.907
  14.807    35.914
  14.806    35.914
>   4  112  0  0  1
  14.904    35.572
  14.911    35.566
  14.454    35.786
  14.184    35.874
>   4  113  0  0  1
  14.534    35.882
  14.866    35.774
  15.245    35.597
  15.242    35.597
>   4  114  -1 -1 -1
  34.448    27.508
  33.700    27.800
  32.500    29.750
  32.300    31.200
>   2  115  0  0  0
  44.338    37.418
  44.710    38.120
>   2  116  0  0  0
  40.100    36.400
  40.110    37.790
>   3  117  0  1  0
  37.000    36.220
  37.200    36.750
  37.270    37.150
>   3  118  0  1  0
  37.200    36.750
  37.530    36.930
  37.680    37.360
>   2  119  0  1  0
  36.354    34.679
  35.960    35.160
>   3  120  0  1  0
  36.319    35.587
  36.180    35.730
  36.080    36.090
>   2  121  0  1  0
  36.380    35.448
  36.910    36.030
>   2  122  0  0  0
  36.020    36.960
  36.290    37.550
>   2  123  1  0  0
  35.580    36.730
  35.640    37.170
>   2  124  1  0  0
  35.250    37.100
  36.360    38.080
>   2  125  0  0  0
  36.450    37.840
  37.140    38.110
>   2  126  0  0  0
  37.550    38.550
  38.720    39.600
>   2  127  0  0  0
  38.180    39.110
  39.580    39.640
>   3  128  0  0  0
  34.750    38.070
  34.010    38.640
  33.330    39.280
>   2  129  0  0  3
  33.750    37.970
  32.840    38.660
>   7  130  0  0  3
  31.680    38.430
  32.010    38.050
  32.260    37.790
  32.860    37.540
  33.480    37.460
  34.060    37.630
  34.520    37.930
>   2  131  0  0  3
  32.460    37.290
  31.830    37.720
>   2  132  0  0  3
  32.190    37.170
  31.330    37.690
>   3  133  0  0  3
  31.820    36.860
  31.420    37.320
  31.070    37.430
>   2  134  0  0  1
  29.420    39.790
  30.730    39.040
>   4  135  0  0  0
  34.780    37.010
  35.260    38.090
  35.580    38.620
  35.510    39.090
>   2  136  0  0  0
  35.790    38.980
  37.610    39.570
>   3  137  0  0  0
  30.250    38.650
  29.780    39.030
  29.180    39.330
>   3  138  0  0  0
  26.720    37.040
  26.420    37.020
  25.780    36.620
>   2  139  0  0  1
  26.710    35.270
  26.780    35.850
>   2  140  0  0  1
  26.060    35.360
  26.080    35.880
>   3  141  0  0  1
  25.170    34.970
  25.140    35.360
  25.150    35.410
>   2  142  0  0  1
  24.090    35.510
  24.130    35.170
>   2  143  0  0  1
  23.210    35.320
  23.140    36.190
>   2  144  0  0  1
  22.900    35.480
  22.880    36.110
>   2  145  0  0  1
  22.390    36.360
  22.380    35.750
>   3  146  0  0  1
  21.670    36.180
  21.720    36.620
  21.390    37.120
>   2  147  0  0  1
  24.220    40.950
  23.900    41.250
>   7  148  0  0  0
  48.440    36.160
  47.910    37.060
  47.080    37.870
  46.150    38.270
  45.660    38.390
  45.180    38.430
  44.880    38.380
>   4  149  0  0  0
  45.660    38.390
  44.920    38.630
  44.040    39.130
  43.530    39.640
>   2  150  0  0  3
  41.540    38.500
  43.230    38.210
>   3  151  0  0  3
  43.730    38.550
  42.130    38.850
  41.570    38.710
>   4  152  0  0  0
  43.800    39.000
  42.790    39.520
  41.820    39.840
  41.370    39.850
>   2  153  0  0  0
  45.660    38.390
  49.450    40.500
>   8  154  0  0  3
  47.270    39.300
  47.740    39.200
  48.310    38.760
  48.660    38.420
  48.910    37.940
  49.210    37.540
  49.670    37.210
  50.020    37.030
>   7  155  0  0  3
  47.670    38.570
  48.340    38.260
  48.730    37.960
  49.070    37.390
  49.370    37.010
  49.650    36.710
  50.010    36.560
>   7  156  0  0  3
  48.480    39.970
  47.500    40.560
  46.130    41.120
  46.120    41.120
  45.400    41.550
  45.400    41.540
  45.040    42.010
>   7  157  0  0  3
  49.250    40.670
  48.280    40.980
  47.480    41.520
  46.630    42.010
  45.700    42.400
  45.300    42.490
  44.636    42.611
>   2  158  0  0  0
  30.990    37.000
  31.060    37.320
>   3  159  0  0  0
  21.508    29.177
  19.651    31.481
  19.676    31.481
>   3  160  0  0  0
  20.442    28.659
  18.318    30.830
  18.343    30.846
>   8  161  0  1  3
   7.679    36.532
   6.984    36.319
   5.410    36.571
   5.397    36.560
   3.315    36.599
   3.309    36.583
   0.879    36.424
   0.923    36.424
>   3  162  0  0  3
  -0.379    35.859
  -1.712    35.176
  -1.699    35.159
>   5  163  0  0  0
  -0.546    35.838
  -1.442    35.830
  -1.887    35.805
  -2.523    35.866
  -2.523    35.860
>   2  164  0  0  3
  -3.746    35.832
  -4.942    35.336
>   3  165  0  0  0
  -4.942    35.336
  -6.137    35.002
  -6.112    35.012
>   5  166  0  0  0
  -4.283    35.098
  -4.295    35.082
  -6.007    34.126
  -6.743    34.031
  -6.730    34.031
>   4  167  0  1  3
  -5.180    36.766
  -5.174    36.777
  -1.540    37.764
   0.276    38.704
>   4  168  0  0  3
  -6.692    36.180
  -6.698    36.158
  -7.646    35.737
  -7.646    35.732
>   4  169  0  0  3
  -8.326    36.663
  -8.320    36.647
  -9.410    36.226
  -9.398    36.231
>   4  170  0  0  3
   3.028    41.982
   2.066    42.227
   0.463    42.796
   0.469    42.801
>   4  171  0  0  3
  -0.901    43.058
   0.998    43.358
   3.186    43.378
   3.186    43.373
>  14  172  0  1  3
   6.201    43.363
   5.897    44.191
   5.785    44.965
   5.797    44.955
   6.265    45.657
   6.265    45.635
   7.289    46.234
   9.425    46.871
   9.424    46.855
  10.254    47.041
  11.514    47.031
  12.509    47.103
  13.790    47.282
  15.014    47.375
>   5  173  0  0  0
  15.014    47.375
  15.532    47.325
  16.294    47.526
  17.129    48.646
  17.694    49.117
>  10  174  0  1  3
  17.694    49.117
  21.241    49.041
  24.088    48.882
  26.377    48.262
  27.167    47.223
  27.511    45.852
  27.239    44.875
  26.396    44.534
  23.280    44.211
  22.764    43.788
>  12  175  0  1  3
   8.236    44.689
   8.230    44.673
   9.673    45.195
  11.144    45.233
  11.132    45.222
  12.470    44.756
  12.457    44.745
  13.448    44.060
  13.429    44.055
  13.964    43.655
  13.945    43.645
  14.433    43.059
>  11  176  0  0  3
  20.328    41.696
  19.821    42.476
  18.553    43.329
  18.541    43.318
  17.593    43.864
  17.574    43.859
  16.454    44.528
  16.429    44.523
  15.891    45.352
  15.915    45.347
  15.946    45.320
>   7  177  0  0  3
  36.936    45.204
  37.788    45.180
  37.776    45.169
  38.904    44.725
  38.885    44.720
  39.206    44.568
  39.206    44.558
>   5  178  0  0  0
  39.206    44.558
  39.193    44.542
  39.648    44.164
  40.347    43.351
  40.347    43.340
>  70  179  0  1  0
  66.689    25.193
  66.774    25.234
  66.917    25.377
  67.022    25.551
  67.125    25.795
  67.183    25.987
  67.201    26.138
  67.126    26.301
  67.089    26.468
  67.058    26.685
  67.041    26.896
  67.043    27.158
  67.032    27.459
  67.087    27.727
  67.115    27.897
  67.201    27.996
  67.265    28.105
  67.266    28.288
  67.240    28.469
  67.204    28.713
  67.197    28.949
  67.264    29.372
  67.305    29.601
  67.324    29.792
  67.315    29.992
  67.292    30.102
  67.241    30.220
  67.215    30.305
  67.220    30.365
  67.341    30.373
  67.461    30.340
  67.585    30.283
  67.741    30.189
  67.829    30.093
  67.923    29.956
  68.045    29.857
  68.178    29.725
  68.276    29.653
  68.426    29.592
  68.641    29.551
  68.850    29.597
  69.060    29.643
  69.280    29.719
  69.536    29.774
  69.720    29.817
  69.865    29.955
  69.991    30.079
  70.176    30.233
  70.264    30.288
  70.340    30.390
  70.351    30.638
  70.314    30.828
  70.272    31.059
  70.185    31.327
  70.071    31.586
  69.999    31.779
  69.946    31.985
  69.914    32.181
  69.907    32.350
  69.907    32.508
  69.893    32.677
  69.915    32.778
  69.993    32.867
  70.103    32.989
  70.174    33.083
  70.240    33.230
  70.284    33.374
  70.322    33.459
  70.347    33.595
  70.355    33.590
>  38  180  0  1  0
  66.689    25.193
  66.460    25.177
  66.445    25.015
  66.261    24.735
  66.079    24.514
  65.880    24.327
  65.608    24.128
  65.302    23.933
  64.972    23.779
  64.665    23.622
  64.274    23.473
  63.814    23.342
  63.440    23.195
  63.118    22.990
  62.792    22.668
  62.459    22.260
  62.087    21.848
  61.753    21.381
  61.416    20.841
  61.115    20.350
  60.803    19.788
  60.516    19.250
  60.309    18.817
  60.195    18.409
  60.066    17.893
  59.965    17.452
  59.916    17.073
  59.920    16.768
  59.924    16.379
  59.888    15.987
  59.788    15.535
  59.625    15.133
  59.463    14.822
  59.226    14.470
  58.909    13.976
  58.594    13.482
  58.390    13.045
  58.130    12.830
>  49  181  0  1  3
  45.479    36.012
  45.440    36.027
  45.402    36.077
  45.358    36.136
  45.311    36.201
  45.250    36.271
  45.192    36.333
  45.122    36.398
  45.090    36.455
  45.018    36.553
  44.963    36.621
  44.908    36.685
  44.854    36.747
  44.802    36.814
  44.750    36.879
  44.699    36.925
  44.656    36.945
  44.577    36.954
  44.521    36.963
  44.474    36.980
  44.437    37.011
  44.379    37.070
  44.347    37.108
  44.322    37.150
  44.331    37.166
  44.356    37.188
  44.400    37.234
  44.421    37.271
  44.426    37.306
  44.411    37.350
  44.373    37.391
  44.338    37.432
  44.258    37.522
  44.159    37.599
  44.063    37.659
  43.989    37.704
  43.901    37.739
  43.834    37.760
  43.746    37.789
  43.626    37.817
  43.501    37.816
  43.345    37.821
  43.181    37.850
  43.100    37.876
  43.012    37.907
  42.937    37.941
  42.881    37.989
  42.797    38.054
  42.742    38.097
>  53  182  0 1 0
  45.479    36.012
  45.521    36.010
  45.579    36.011
  45.641    36.002
  45.704    35.958
  45.753    35.920
  45.813    35.873
  45.886    35.814
  45.962    35.744
  46.054    35.666
  46.116    35.617
  46.179    35.550
  46.242    35.495
  46.314    35.430
  46.376    35.392
  46.425    35.355
  46.477    35.319
  46.548    35.273
  46.565    35.239
  46.592    35.176
  46.632    35.118
  46.681    35.066
  46.729    35.030
  46.765    35.025
  46.833    34.978
  46.926    34.937
  46.980    34.924
  47.041    34.898
  47.099    34.880
  47.166    34.862
  47.198    34.865
  47.242    34.876
  47.274    34.887
  47.344    34.893
  47.424    34.880
  47.478    34.862
  47.552    34.820
  47.632    34.776
  47.696    34.728
  47.782    34.676
  47.840    34.629
  47.901    34.576
  47.971    34.521
  48.015    34.487
  48.063    34.458
  48.146    34.416
  48.206    34.387
  48.292    34.342
  48.377    34.300
  48.444    34.242
  48.516    34.186
  48.605    34.120
  48.674    34.065
> 101  183  0  1  0
  48.674    34.065
  48.750    33.985
  48.812    33.927
  48.869    33.861
  48.938    33.800
  49.001    33.755
  49.091    33.694
  49.198    33.633
  49.291    33.571
  49.354    33.534
  49.429    33.489
  49.522    33.425
  49.602    33.355
  49.692    33.281
  49.803    33.171
  49.865    33.123
  49.942    33.064
  50.013    33.000
  50.093    32.923
  50.144    32.851
  50.202    32.779
  50.278    32.691
  50.348    32.616
  50.393    32.560
  50.458    32.514
  50.543    32.452
  50.604    32.404
  50.643    32.369
  50.694    32.313
  50.737    32.291
  50.774    32.272
  50.813    32.237
  50.910    32.159
  50.971    32.110
  51.041    32.093
  51.120    32.044
  51.198    31.982
  51.273    31.919
  51.357    31.846
  51.439    31.792
  51.532    31.745
  51.650    31.658
  51.748    31.574
  51.872    31.441
  51.985    31.365
  52.087    31.304
  52.164    31.228
  52.241    31.186
  52.322    31.142
  52.375    31.087
  52.439    31.022
  52.492    30.973
  52.533    30.930
  52.592    30.883
  52.688    30.849
  52.780    30.811
  52.866    30.758
  52.958    30.718
  53.069    30.680
  53.176    30.642
  53.277    30.591
  53.378    30.543
  53.469    30.494
  53.548    30.446
  53.604    30.405
  53.655    30.353
  53.728    30.294
  53.795    30.250
  53.871    30.207
  53.944    30.165
  54.008    30.112
  54.062    30.015
  54.105    29.931
  54.135    29.864
  54.163    29.782
  54.217    29.692
  54.255    29.628
  54.288    29.568
  54.338    29.458
  54.369    29.423
  54.404    29.368
  54.443    29.306
  54.461    29.266
  54.485    29.218
  54.510    29.193
  54.570    29.145
  54.601    29.073
  54.764    28.965
  54.929    28.844
  55.011    28.782
  55.075    28.713
  55.106    28.651
  55.170    28.585
  55.244    28.533
  55.339    28.499
  55.446    28.494
  55.535    28.457
  55.621    28.410
  55.693    28.383
  55.782    28.346
  55.866    28.323
>  16  184  0  1  0
  55.866    28.323
  55.954    28.315
  56.017    28.322
  56.062    28.330
  56.116    28.340
  56.210    28.321
  56.292    28.279
  56.370    28.219
  56.440    28.170
  56.517    28.131
  56.618    28.101
  56.707    28.069
  56.770    28.047
  56.828    28.030
  56.880    28.018
  56.900    28.012
>  23  185  0  1  0
  56.897    28.012
  56.886    27.987
  56.875    27.861
  56.861    27.739
  56.856    27.616
  56.873    27.541
  56.941    27.479
  57.023    27.379
  57.107    27.264
  57.169    27.170
  57.226    27.056
  57.251    26.944
  57.237    26.825
  57.282    26.704
  57.293    26.643
  57.320    26.583
  57.313    26.537
  57.289    26.442
  57.299    26.326
  57.293    26.222
  57.288    26.136
  57.288    26.073
  57.281    26.032
>  10  186  0  1  0
  57.308    25.852
  57.331    25.654
  57.344    25.552
  57.386    25.345
  57.424    25.165
  57.451    25.022
  57.487    24.887
  57.516    24.733
  57.533    24.638
  57.553    24.548
>  21  187  0  1  3
  66.460    25.177
  66.098    24.931
  65.838    24.836
  65.586    24.747
  65.079    24.645
  64.732    24.596
  64.284    24.544
  63.881    24.506
  63.413    24.459
  62.946    24.424
  62.506    24.358
  61.935    24.341
  61.483    24.286
  60.848    24.275
  60.427    24.318
  59.972    24.388
  59.530    24.430
  59.033    24.525
  58.554    24.578
  57.846    24.640
  57.553    24.548
>  11  188  0  1  0
  34.448    27.510
  34.524    27.393
  34.646    27.219
  34.801    26.979
  35.095    26.521
  35.241    26.321
  35.475    25.912
  35.647    25.635
  35.830    25.332
  36.058    24.961
  36.870    23.540
>  57  189  0  1  0
  36.870    23.540
  36.950    23.460
  37.080    23.340
  37.190    23.260
  37.300    23.150
  37.380    23.070
  37.440    23.010
  37.500    22.950
  37.550    22.860
  37.650    22.670
  37.750    22.480
  37.830    22.330
  37.880    22.140
  37.940    21.950
  37.970    21.780
  37.980    21.690
  38.020    21.510
  38.030    21.360
  38.050    21.180
  38.060    21.110
  38.130    20.960
  38.200    20.800
  38.240    20.670
  38.270    20.530
  38.280    20.420
  38.340    20.250
  38.450    20.070
  38.590    19.860
  38.720    19.630
  38.870    19.450
  39.040    19.310
  39.220    19.120
  39.410    18.890
  39.570    18.740
  39.680    18.660
  39.800    18.500
  39.850    18.430
  39.920    18.230
  39.930    18.230
  40.010    18.090
  40.080    17.950
  40.140    17.840
  40.220    17.700
  40.300    17.530
  40.430    17.360
  40.500    17.260
  40.580    17.120
  40.710    16.950
  40.800    16.800
  40.870    16.700
  41.090    16.430
  41.200    16.290
  41.320    16.130
  41.470    16.010
  41.560    15.920
  41.590    15.860
  41.660    15.800
>  20  190  1  1  0
  41.660    15.800
  41.780    15.660
  41.810    15.600
  41.880    15.460
  41.950    15.350
  42.030    15.210
  42.090    15.080
  42.140    14.980
  42.220    14.850
  42.230    14.790
  42.280    14.680
  42.270    14.310
  42.370    14.080
  42.460    13.850
  42.560    13.760
  42.660    13.640
  42.800    13.470
  43.020    13.230
  43.140    13.070
  43.650    12.010
> 101  191  0  1  0
  43.650    12.010
  44.050    12.010
  44.510    12.010
  44.780    12.020
  44.880    12.020
  44.910    12.010
  45.100    12.000
  45.280    12.000
  45.330    12.050
  45.430    12.020
  45.520    11.980
  45.600    12.070
  45.640    12.160
  45.650    12.150
  45.850    12.100
  46.110    12.060
  46.150    12.110
  46.200    12.170
  46.310    12.140
  46.430    12.090
  46.510    12.200
  46.580    12.290
  46.720    12.250
  46.850    12.210
  46.930    12.300
  46.990    12.400
  47.050    12.390
  47.130    12.360
  47.160    12.460
  47.320    12.430
  47.540    12.370
  47.590    12.440
  47.650    12.520
  47.790    12.490
  47.900    12.460
  47.990    12.580
  48.050    12.670
  48.140    12.640
  48.270    12.600
  48.350    12.570
  48.450    12.730
  48.570    12.690
  48.700    12.660
  48.800    12.770
  48.880    12.910
  49.070    12.850
  49.280    12.800
  49.350    12.900
  49.430    13.040
  49.470    13.010
  49.590    13.170
  49.680    13.310
  49.850    13.250
  50.060    13.170
  50.170    13.120
  50.250    13.230
  50.310    13.310
  50.430    13.270
  50.570    13.220
  50.660    13.360
  50.840    13.280
  51.080    13.190
  51.250    13.120
  51.340    13.270
  51.450    13.460
  51.570    13.670
  51.760    14.030
  51.940    14.350
  52.140    14.690
  52.300    14.660
  52.550    14.600
  52.670    14.560
  52.740    14.680
  52.910    14.620
  53.120    14.560
  53.210    14.540
  53.220    14.560
  53.360    14.510
  53.580    14.440
  53.820    14.360
  53.860    14.350
  53.930    14.490
  54.020    14.660
  54.070    14.770
  54.150    14.730
  54.190    14.710
  54.250    14.690
  54.290    14.680
  54.330    14.670
  54.390    14.640
  54.450    14.620
  54.510    14.760
  54.550    14.870
  54.730    14.800
  54.960    14.730
  55.050    14.710
  55.110    14.850
  55.280    14.790
  55.480    14.730
  55.630    14.680
  55.670    14.720
>   4  192  0  1  0
  55.670    14.720
  55.820    14.690
  56.060    14.640
  56.180    14.620
>  18  193  0  1  0
  56.180    14.620
  56.410    14.530
  56.600    14.420
  56.820    14.300
  56.760    14.210
  56.900    14.140
  57.040    14.070
  56.970    13.940
  57.140    13.850
  57.300    13.770
  57.300    13.740
  57.480    13.640
  57.690    13.520
  57.810    13.450
  57.730    13.310
  57.640    13.140
  57.870    13.000
  58.130    12.830
>   3  194  0  1  0
  58.130    12.830
  56.920     9.970
  56.980     9.860
> 101  195  0  1  0
  56.980     9.860
  57.030     9.860
  57.260     9.680
  57.490     9.940
  58.060     9.530
  58.020     9.450
  58.260     9.290
  58.150     9.090
  58.430     8.860
  58.250     8.650
  58.610     8.400
  58.920     8.170
  58.880     8.100
  59.310     7.770
  59.220     7.670
  60.180     6.950
  60.040     6.770
  60.670     6.310
  61.140     5.910
  61.660     5.490
  61.530     5.260
  62.000     4.910
  62.460     4.520
  63.000     4.110
  62.870     3.890
  63.330     3.630
  63.390     3.700
  63.820     3.480
  63.890     3.600
  64.620     3.220
  64.680     3.300
  65.210     2.920
  65.490     3.300
  65.960     2.970
  66.380     2.750
  66.180     2.390
  65.990     2.050
  66.330     1.860
  66.670     1.620
  66.490     1.330
  66.870     1.070
  66.660     0.720
  67.160     0.340
  66.840    -0.040
  67.210    -0.340
  67.020    -0.580
  67.660    -1.040
  67.370    -1.440
  67.930    -1.910
  67.790    -2.090
  68.250    -2.540
  67.890    -2.890
  68.270    -3.350
  68.670    -3.770
  68.350    -4.120
  68.750    -4.550
  68.200    -5.040
  68.610    -5.470
  68.220    -5.890
  67.780    -6.260
  68.290    -6.820
  67.810    -7.250
  68.070    -7.650
  67.640    -8.030
  68.040    -8.490
  67.090    -9.270
  67.380    -9.630
  66.460   -10.350
  66.790   -10.760
  66.170   -11.210
  66.420   -11.560
  65.700   -12.020
  66.370   -12.830
  65.820   -13.270
  66.210   -13.780
  65.930   -13.980
  66.490   -14.700
  66.890   -15.270
  67.290   -15.820
  67.380   -15.940
  67.030   -16.140
  67.410   -16.660
  66.710   -17.090
  66.140   -17.450
  65.540   -17.780
  65.010   -18.060
  65.520   -18.830
  66.030   -19.580
  66.430   -20.080
  66.750   -19.870
  67.040   -20.220
  67.310   -20.070
  67.590   -20.370
  67.770   -20.280
  67.900   -20.470
  68.210   -20.290
  68.560   -20.710
  68.280   -20.880
  68.650   -21.450
  69.200   -22.090
  68.800   -22.390
>  10  196  0  1  0
  68.800   -22.390
  69.160   -22.830
  69.560   -23.370
  69.850   -23.710
  69.400   -24.040
  69.680   -24.370
  69.940   -24.680
  69.590   -24.970
  70.090   -25.480
  69.962   -25.645
>  81  197  0  1  0
  34.448    27.508
  34.591    27.898
  34.525    27.945
  34.576    28.082
  34.632    28.152
  34.699    28.236
  34.756    28.346
  34.806    28.494
  34.834    28.599
  34.768    28.638
  34.865    28.880
  34.792    28.906
  34.887    29.149
  34.974    29.373
  34.917    29.407
  34.993    29.567
  35.090    29.814
  35.161    30.005
  35.232    30.189
  35.271    30.349
  35.361    30.623
  35.433    30.820
  35.476    31.023
  35.516    31.176
  35.539    31.318
  35.576    31.503
  35.589    31.640
  35.508    31.663
  35.532    31.834
  35.548    31.941
  35.559    32.091
  35.588    32.279
  35.617    32.488
  35.627    32.619
  35.632    32.761
  35.582    32.772
  35.599    32.941
  35.611    33.092
  35.619    33.247
  35.638    33.408
  35.667    33.515
  35.703    33.603
  35.767    33.707
  35.826    33.808
  35.886    33.907
  35.948    34.011
  36.037    34.109
  36.121    34.221
  36.192    34.295
  36.250    34.367
  36.300    34.460
  36.342    34.592
  36.359    34.690
  36.359    34.811
  36.368    34.953
  36.374    35.068
  36.367    35.240
  36.374    35.352
  36.372    35.451
  36.299    35.479
  36.315    35.597
  36.332    35.672
  36.371    35.737
  36.414    35.784
  36.447    35.815
  36.486    35.838
  36.521    35.871
  36.550    35.909
  36.583    35.976
  36.613    36.039
  36.635    36.135
  36.662    36.243
  36.695    36.355
  36.721    36.467
  36.774    36.598
  36.805    36.676
  36.845    36.752
  36.908    36.833
  36.964    36.927
  37.048    37.117
  37.370    37.443
>   2  198  0  1  0
  36.586    36.013
  36.326    36.435
>  23  199  0  1  0
  42.742    38.097
  42.633    37.931
  42.310    38.064
  42.090    38.149
  41.673    38.223
  41.283    38.350
  41.039    38.478
  40.770    38.611
  40.568    38.650
  40.283    38.696
  39.979    38.538
  39.661    38.431
  39.505    38.290
  39.234    38.218
  39.004    38.155
  38.743    38.076
  38.550    38.041
  38.349    38.012
  38.068    38.022
  37.767    38.003
  37.503    37.954
  36.994    37.764
  36.274    36.524
>   8  200  -1 -1 -1
  56.699    27.238
  56.699    27.216
  53.903    27.827
  52.117    28.713
  50.157    30.390
  47.652    33.009
  46.297    34.533
  46.284    34.523
>   4  201  -1 -1 -1
  47.645    34.249
  49.360    32.370
  51.747    30.718
  54.146    29.104
>   2  202  0  0  2
  20.644    40.012
  20.726    40.077
>   2  203  0  0  2
  20.647    39.921
  20.726    39.982
>   3  204  0  0  2
  20.940    39.680
  20.937    39.677
  20.675    39.868
>   2  205  0  0  2
  20.800    39.393
  20.709    39.513
>   2  206  0  0  2
  20.852    39.227
  20.740    39.371
>   3  207  0  0  2
  20.600    39.275
  20.598    39.274
  20.531    39.477
>   2  208  0  0  2
  20.490    39.502
  20.421    39.614
>   2  209  0  0  2
  20.459    39.324
  20.421    39.463
>   2  210  0  0  1
  21.103    39.102
  21.199    38.966
>   3  211  0  0  1
  21.233    38.856
  21.246    38.720
  21.289    38.603
>   2  212  0  0  1
  21.344    38.578
  21.767    38.569
>   3  213  0  0  1
  21.299    38.511
  21.092    38.819
  20.940    38.907
>   2  214  0  0  1
  21.413    38.232
  21.535    38.178
>   3  215  0  0  1
  21.630    38.128
  21.629    38.125
  21.951    37.968
>   2  216  0  0  2 
  20.516    38.652
  20.616    38.851
>   5  217  0  0  0
  45.127    36.785
  45.396    36.494
  45.674    36.183
  45.982    35.878
  46.194    35.671
>   3  218  0  0  0
  38.443    38.081
  40.230    38.833
  40.925    39.296
>   3  219  0  0  0
  40.972    39.480
  41.983    40.366
  42.339    40.754
>   2  220  0  0  1
  43.153    39.895
  43.959    40.921
>   2  221  0  0  3
  44.355    40.966
  43.234    40.838
>   2  222  0  0  1
  43.951    40.909
  45.769    40.226
>   2  223  0  0  3
  46.794    39.561
  46.028    40.236
>   2  224  0  0  0
  42.325    41.214
  43.507    42.005
>   2  225  0  0  0
  43.820    42.169
  44.809    42.827
>   5  226  0  0  3
  47.771    40.902
  47.039    41.264
  46.954    41.392
  46.402    41.679
  44.614    42.405
>   4  227  0  0  3
  44.421    42.644
  43.106    42.844
  42.893    42.913
  42.230    43.066
>   3  228  0  0  3
  42.082    43.059
  41.204    43.310
  40.215    43.750
>  15  229  0  0  3
  43.460    41.900
  44.400    41.890
  44.570    41.880
  44.620    41.870
  44.670    41.850
  44.690    41.840
  44.720    41.830
  44.770    41.810
  44.800    41.800
  44.840    41.790
  44.880    41.770
  44.930    41.760
  44.960    41.750
  45.000    41.730
  45.030    41.710
>   9  230  0  0  0 
  45.310    39.550
  45.420    39.570
  45.510    39.600
  45.590    39.630
  45.650    39.660
  45.710    39.690
  45.750    39.710
  45.790    39.730
  45.790    39.730
>  13  231  0  0  0
  43.500    40.280
  43.890    40.180
  44.070    40.130
  44.300    40.070
  44.520    40.000
  44.650    39.920
  44.750    39.830
  44.880    39.760
  45.010    39.700
  45.110    39.640
  45.250    39.570
  45.360    39.530
  45.430    39.500
>   6  232  0  0  0
  41.170    41.510
  41.200    41.530
  41.320    41.590
  41.450    41.660
  41.570    41.720
  41.700    41.790
>   5  233  0  1  0
  31.670    40.640
  31.410    40.740
  31.200    40.780
  31.000    40.780
  30.380    40.680
>   2  234  0  0  1
  24.920    40.590
  24.750    40.780
>   2  235  0  0  1
  23.820    40.750
  23.100    41.200
>   2  236  0  0  0
  23.630    40.670
  23.000    40.695
>   2  237  0  0  1
  23.720    39.510
  23.160    39.630
